# icm    alpha [1/mm]
2.994388 0.155288
3.003184 0.155326
3.027818 0.155423
3.066521 0.155597
3.116663 0.155791
3.175600 0.156043
3.242460 0.156316
3.385842 0.156939
3.529242 0.157545
3.596088 0.157820
3.655029 0.158076
3.705163 0.158273
3.743890 0.158450
3.768507 0.158549
3.777313 0.158588
3.784351 0.158608
3.804565 0.158649
3.836254 0.158729
3.876715 0.158810
3.924215 0.158931
3.977885 0.159052
4.094900 0.159316
4.211914 0.159580
4.265584 0.159701
4.313084 0.159823
4.353545 0.159905
4.385200 0.159986
4.405448 0.160026
4.412486 0.160047
4.416022 0.160086
4.427430 0.160184
4.444141 0.160361
4.465256 0.160558
4.519793 0.161091
4.581336 0.161705
4.643779 0.162322
4.698317 0.162861
4.719432 0.163061
4.736143 0.163241
4.747551 0.163341
4.751087 0.163381
4.754589 0.163441
4.762495 0.163621
4.794150 0.164281
4.838114 0.165206
4.888215 0.166299
4.939184 0.167378
4.983147 0.168321
5.014769 0.169000
5.022675 0.169186
5.026210 0.169248
5.028846 0.169330
5.035851 0.169578
5.047292 0.169930
5.062235 0.170407
5.099995 0.171615
5.142191 0.173022
5.184353 0.174419
5.222113 0.175656
5.237056 0.176149
5.248498 0.176515
5.255502 0.176773
5.258138 0.176859
5.259906 0.176945
5.265176 0.177226
5.273949 0.177636
5.284489 0.178156
5.311708 0.179505
5.342429 0.181063
5.374051 0.182613
5.401270 0.183997
5.411811 0.184535
5.420583 0.184962
5.425854 0.185255
5.427622 0.185345
5.429356 0.185458
5.433759 0.185752
5.441631 0.186204
5.450437 0.186794
5.474120 0.188277
5.501306 0.190027
5.528525 0.191769
5.552208 0.193291
5.561014 0.193904
5.568886 0.194376
5.573289 0.194684
5.575057 0.194802
5.578559 0.194969
5.589967 0.195420
5.606645 0.196136
5.627760 0.197046
5.653211 0.198153
5.682198 0.199364
5.743707 0.202077
5.806050 0.204828
5.835037 0.206079
5.860521 0.207237
5.881602 0.208199
5.898280 0.208961
5.909722 0.209445
5.913224 0.209624
5.918494 0.209803
5.935206 0.210290
5.959823 0.211035
5.992312 0.212041
6.031006 0.213209
6.074069 0.214539
6.167233 0.217464
6.260398 0.220402
6.303461 0.221777
6.342121 0.222998
6.374643 0.224062
6.399260 0.224856
6.415939 0.225378
6.421209 0.225570
6.425612 0.225708
6.439688 0.226094
6.459902 0.226674
6.487155 0.227450
6.554835 0.229375
6.632188 0.231625
6.710409 0.233870
6.778089 0.235848
6.805341 0.236656
6.825589 0.237263
6.839632 0.237669
6.844035 0.237814
6.850172 0.237960
6.868652 0.238426
6.896771 0.239097
6.933697 0.240004
6.976793 0.241092
7.025127 0.242303
7.129766 0.244923
7.234371 0.247571
7.282738 0.248815
7.325801 0.249942
7.362727 0.250891
7.390880 0.251597
7.409326 0.252090
7.415497 0.252244
7.418132 0.252306
7.426037 0.252522
7.454157 0.253263
7.499021 0.254442
7.557929 0.255970
7.626476 0.257791
7.702962 0.259847
7.785619 0.262080
7.870011 0.264396
7.954403 0.266700
8.037060 0.268991
8.113546 0.271136
8.182127 0.273065
8.241035 0.274705
8.285866 0.275984
8.313985 0.276795
8.321924 0.277031
8.324559 0.277099
8.330697 0.277302
8.349143 0.277845
8.377295 0.278695
8.414221 0.279787
8.457284 0.281089
8.505651 0.282569
8.610257 0.285798
8.714896 0.289064
8.763229 0.290587
8.806292 0.291939
8.843218 0.293083
8.871371 0.293979
8.889817 0.294554
8.895988 0.294770
8.903893 0.294987
8.925008 0.295565
8.958397 0.296470
9.001494 0.297632
9.053363 0.299019
9.110503 0.300596
9.234488 0.304034
9.358474 0.307475
9.415614 0.309096
9.467483 0.310537
9.510579 0.311754
9.543969 0.312709
9.565084 0.313322
9.572989 0.313552
9.580028 0.313782
9.601142 0.314435
9.633665 0.315435
9.675860 0.316749
9.725095 0.318302
9.780500 0.320019
9.900950 0.323875
10.021400 0.327739
10.076771 0.329507
10.126005 0.331122
10.131476 0.352719
10.372676 0.456269
10.613909 0.506357
10.855143 0.504793
11.096343 0.470143
11.337577 0.435836
11.578810 0.437136
11.820044 0.481469
12.061277 0.567009
12.302478 0.673363
12.543711 0.781975
12.784945 0.874239
13.026178 0.938961
13.267378 0.979834
13.508612 1.008018
13.749846 1.038401
13.991046 1.072844
14.232279 1.092726
14.473513 1.077548
14.714746 1.025456
14.955980 0.955095
15.197180 0.886948
15.438414 0.843342
15.679647 0.833556
15.920881 0.853863
16.162081 0.891245
16.403315 0.925243
16.644548 0.939100
16.885748 0.929086
17.126982 0.895210
17.368215 0.850505
17.609449 0.802415
17.850683 0.762102
18.091883 0.733273
18.333116 0.714071
18.574350 0.700771
18.815583 0.682219
19.056784 0.658412
19.298017 0.627502
19.539251 0.591344
19.780451 0.548081
20.021684 0.497725
20.262918 0.442132
20.504152 0.392443
20.745385 0.365350
20.986585 0.368261
21.227819 0.393761
21.469052 0.425150
21.710286 0.436441
21.951486 0.422057
22.192720 0.391290
22.433953 0.358988
22.675153 0.338131
22.916387 0.336145
23.157621 0.345604
23.398854 0.364652
23.640088 0.393291
23.881288 0.437091
24.122521 0.501640
24.363755 0.581383
24.604989 0.655893
24.846189 0.691699
25.087422 0.646040
25.328656 0.478121
25.569889 0.147495
25.811090 0.323354
26.052323 0.754064
26.293557 0.850302
26.534790 0.618979
26.775990 0.365380
27.017224 0.247137
27.258458 0.252870
27.499691 0.328786
27.740891 0.432278
27.982125 0.531809
28.223358 0.614372
28.464592 0.666935
28.705792 0.687619
28.947026 0.681980
29.188259 0.661176
29.429493 0.640080
29.670693 0.627988
29.911927 0.630461
30.153160 0.647508
30.394394 0.675416
30.635594 0.699324
30.876827 0.711785
31.118061 0.707225
31.359295 0.689365
31.600495 0.671223
31.841728 0.662083
32.082962 0.665665
32.324195 0.678254
32.565396 0.694282
32.806629 0.713740
33.047863 0.734774
33.289096 0.753669
33.530196 0.766730
33.771697 0.771998
34.012864 0.778907
34.254030 0.794836
34.495197 0.832809
34.736364 0.887257
34.977531 0.948890
35.219031 1.000892
35.460198 1.026626
35.701365 1.009258
35.942532 0.954386
36.183699 0.875068
36.424866 0.804812
36.666366 0.775151
36.907533 0.802940
37.148700 0.876974
37.389867 0.969384
37.631033 1.042948
37.872200 1.069705
38.113701 1.047702
38.354867 1.001300
38.596034 0.967676
38.837201 0.976607
39.078368 1.033689
39.319868 1.112810
39.561035 1.180593
39.802202 1.222042
40.043369 1.231546
40.284536 1.225880
40.525703 1.214364
40.767203 1.211840
41.008370 1.218454
41.249537 1.234136
41.490704 1.260751
41.731870 1.290849
41.973037 1.330025
42.214538 1.376346
42.455704 1.431836
42.696871 1.490827
42.938038 1.542119
43.179205 1.572634
43.420705 1.578548
43.661872 1.567486
43.903039 1.558048
44.144206 1.565175
44.385373 1.594474
44.626540 1.640350
44.868040 1.684049
45.109207 1.710777
45.350374 1.714840
45.591541 1.692500
45.832707 1.643768
46.073874 1.576136
46.315375 1.495145
46.556541 1.419636
46.797708 1.377505
47.038875 1.389253
47.280042 1.453026
47.521209 1.546467
47.762709 1.643382
48.003876 1.714034
48.245043 1.750834
48.486210 1.757502
48.727377 1.750859
48.968877 1.745779
49.210044 1.755517
49.451211 1.778122
49.692378 1.811730
49.933544 1.843256
50.174711 1.859603
50.416212 1.851332
50.657378 1.822359
50.898545 1.781956
51.139712 1.735741
51.380879 1.691195
51.622046 1.655790
51.863546 1.640644
52.104713 1.645929
52.345880 1.673429
52.587047 1.704464
52.828214 1.712869
53.069714 1.636887
53.310881 1.527209
53.552048 1.421127
53.793215 1.361535
54.034381 1.365181
54.275548 1.411542
54.517049 1.463224
54.758215 1.486811
54.999382 1.482202
55.240549 1.469931
55.481716 1.479867
55.722883 1.528818
55.964383 1.605514
56.205550 1.689620
56.446717 1.771704
56.687884 1.797530
56.929051 1.821301
57.170217 1.848631
57.411718 1.883167
57.652885 1.919490
57.894051 1.953766
58.135218 1.978507
58.376385 1.995583
58.617886 2.003024
58.859052 2.010381
59.100219 2.021306
59.341386 2.041415
59.582553 2.074460
59.823720 2.116702
60.065220 2.168050
60.306387 2.221212
60.547554 2.266718
60.788721 2.306440
61.029888 2.340374
61.271054 2.374147
61.512555 2.413288
61.753722 2.456123
61.994888 2.500680
62.236055 2.546961
62.477222 2.587457
62.718723 2.622065
62.959889 2.649105
63.201056 2.664716
63.442223 2.674534
63.683390 2.678558
63.924557 2.680547
64.166057 2.680401
64.407224 2.678323
64.648391 2.679849
64.889558 2.683103
65.130725 2.691843
65.371891 2.702313
65.613392 2.714412
65.854559 2.732104
66.095725 2.755291
66.336892 2.783975
66.578059 2.814400
66.819226 2.846567
67.060726 2.874732
67.301893 2.895340
67.543060 2.910167
67.784227 2.919213
68.025394 2.926240
68.266894 2.934907
68.508061 2.947308
68.749228 2.965221
68.990395 2.986766
69.231562 3.013828
69.472728 3.044529
69.714229 3.076881
69.955396 3.105450
70.196562 3.122595
70.437729 3.126432
70.678896 3.120726
70.920063 3.107364
71.161563 3.095655
71.402730 3.085814
71.643897 3.083385
71.885064 3.088369
72.126231 3.100766
72.367731 3.122354
72.608898 3.153355
72.850065 3.193665
73.091232 3.245177
73.332399 3.302246
73.573565 3.359220
73.815066 3.415991
74.056233 3.474666
74.297399 3.537025
74.538566 3.604962
74.779733 3.670928
75.020900 3.731143
75.262400 3.783603
75.503567 3.830412
75.744734 3.875239
75.985901 3.919975
76.227068 3.968406
76.468568 4.018531
76.709735 4.066790
76.950902 4.116858
77.192069 4.163055
77.433235 4.205379
77.674402 4.240040
77.915903 4.268818
78.157070 4.291934
78.398236 4.313067
78.639403 4.336008
78.880570 4.364551
79.121737 4.404390
79.363237 4.461109
79.604404 4.534953
79.845571 4.618235
80.086738 4.701470
80.327905 4.780860
80.569072 4.846896
80.810572 4.901351
81.051739 4.944446
81.292906 4.974155
81.534072 4.998085
81.775239 5.018137
82.016740 5.038001
82.257907 5.056004
82.499073 5.066324
82.740240 5.065153
82.981407 5.052492
83.222574 5.026443
83.464074 4.992604
83.705241 4.956916
83.946408 4.923071
84.187575 4.891067
84.428742 4.862808
84.669909 4.838291
84.911409 4.823103
85.152576 4.815573
85.393743 4.813685
85.634909 4.817440
85.876076 4.821136
86.117243 4.822876
86.358744 4.822543
86.599910 4.818469
86.841077 4.810541
87.082244 4.796858
87.323411 4.779324
87.564911 4.759725
87.806078 4.745894
88.047245 4.741515
88.288412 4.742787
88.529579 4.745913
88.770746 4.739494
89.012246 4.719615
89.253413 4.684617
89.494580 4.641987
89.735746 4.593630
89.976913 4.545245
90.218080 4.494936
90.459581 4.442589
90.700747 4.394128
90.941914 4.349435
91.183081 4.316089
91.424248 4.299773
91.665748 4.300365
91.906915 4.314310
92.148082 4.339598
92.389249 4.372443
92.630416 4.412850
92.871583 4.455134
93.113083 4.495386
93.354250 4.531941
93.595417 4.562784
93.836583 4.589810
94.077750 4.616816
94.318917 4.641905
94.560418 4.663059
94.801584 4.678614
95.042751 4.688452
95.283918 4.694473
95.525085 4.694778
95.766252 4.693166
96.007752 4.691420
96.248919 4.687878
96.490086 4.686220
96.731253 4.682650
96.972419 4.677168
97.213920 4.669657
97.455087 4.662254
97.696254 4.658640
97.937420 4.660714
98.178587 4.666578
98.419754 4.683831
98.661255 4.710459
98.902421 4.750504
99.143588 4.801955
99.384755 4.862923
99.625922 4.925810
99.867089 4.984912
100.108589 5.038205
100.349756 5.082116
100.590923 5.120326
100.832090 5.147122
101.073256 5.162499
101.314757 5.162529
101.555924 5.147449
101.797091 5.117145
102.038257 5.073529
102.279424 5.020417
102.520591 4.961623
102.762091 4.898934
103.003258 4.836395
103.244425 4.775789
103.485592 4.715214
103.726759 4.654671
103.967926 4.594162
104.209426 4.539262
104.450593 4.490204
104.691760 4.452555
104.932927 4.424414
105.174093 4.407674
105.415594 4.394628
105.656761 4.385513
105.897928 4.376418
106.139094 4.367345
106.380261 4.354503
106.621428 4.335997
106.862928 4.307921
107.104095 4.270516
107.345262 4.223671
107.586429 4.174969
107.827596 4.118733
108.068763 4.060648
108.310263 3.993032
108.551430 3.918020
108.792597 3.833616
109.033764 3.743612
109.274930 3.651794
109.516097 3.563830
109.757598 3.485259
109.998765 3.416304
110.239931 3.356836
110.481098 3.308735
110.722265 3.270106
110.963765 3.242713
111.204932 3.232437
111.446099 3.233506
111.687266 3.245922
111.928433 3.258379
112.169600 3.267108
112.411100 3.273878
112.652267 3.278922
112.893434 3.285893
113.134601 3.291024
113.375767 3.294314
113.616934 3.290109
113.858435 3.282065
114.099602 3.266644
114.340768 3.245618
114.581935 3.218989
114.823102 3.186761
115.064269 3.147054
115.305769 3.101641
115.546936 3.058288
115.788103 3.018761
116.029270 2.988705
116.270437 2.966233
116.511937 2.951231
116.753104 2.942042
116.994271 2.938554
117.235438 2.938885
117.476604 2.948680
117.717771 2.971705
117.959272 3.011616
118.200439 3.068653
118.441605 3.138951
118.682772 3.214988
118.923939 3.293003
119.165106 3.363569
119.406606 3.424678
119.647773 3.470889
119.888940 3.503963
120.130107 3.527670
120.371274 3.543895
120.612774 3.554410
120.853941 3.555666
121.095108 3.545663
121.336275 3.522516
121.577441 3.490004
121.818608 3.453793
122.060109 3.425092
122.301276 3.404123
122.542442 3.396430
122.783609 3.396352
123.024776 3.403892
123.265943 3.422822
123.507443 3.449262
123.748610 3.485327
123.989777 3.536574
124.230944 3.597351
124.472111 3.671445
124.713611 3.751204
124.954778 3.836857
125.195945 3.922628
125.437112 4.004733
125.678278 4.079380
125.919445 4.140881
126.160946 4.185324
126.402112 4.216707
126.643279 4.240598
126.884446 4.264574
127.125613 4.292427
127.366780 4.326055
127.608280 4.357765
127.849447 4.383988
128.090614 4.402715
128.331781 4.419632
128.572948 4.440431
128.814114 4.472701
129.055615 4.520135
129.296782 4.588660
129.537949 4.680088
129.779115 4.796355
130.020282 4.929901
130.261783 5.076847
130.502949 5.227920
130.744116 5.379209
130.985283 5.530714
131.226450 5.678618
131.467617 5.830555
131.709117 5.984515
131.950284 6.144550
132.191451 6.306736
132.432618 6.474913
132.673785 6.645260
132.914951 6.815861
133.156452 6.984685
133.397619 7.150022
133.638786 7.305974
133.879952 7.452518
134.121119 7.587702
134.362620 7.717186
134.603786 7.843107
134.844953 7.967282
135.086120 8.091645
135.327287 8.210386
135.568454 8.321560
135.809954 8.430859
136.051121 8.540437
136.292288 8.654066
136.533455 8.767871
136.774622 8.876025
137.015788 8.970742
137.257289 9.048006
137.498456 9.100231
137.739623 9.127288
137.980789 9.127220
138.221956 9.100029
138.463123 9.043782
138.704623 8.956455
138.945790 8.838308
139.186957 8.689292
139.428124 8.511421
139.669291 8.308653
139.910791 8.086767
140.151958 7.847977
140.393125 7.599961
140.634292 7.342756
140.875459 7.080249
141.116625 6.812465
141.358126 6.548914
141.599293 6.289789
141.840460 6.042621
142.081626 5.811183
142.322793 5.595419
142.563960 5.400994
142.805460 5.223930
143.046627 5.066285
143.287794 4.924105
143.528961 4.793553
143.770128 4.672707
144.011295 4.557751
144.252795 4.448575
144.493962 4.343474
144.735129 4.240447
144.976296 4.135703
145.217462 4.025460
145.458963 3.905846
145.700130 3.773299
145.941296 3.629637
146.182463 3.478659
146.423630 3.324154
146.664797 3.171783
146.906297 3.019562
147.147464 2.871447
147.388631 2.727332
147.629798 2.592842
147.870965 2.467955
148.112132 2.354529
148.353632 2.252445
148.594799 2.161881
148.835966 2.084593
149.077133 2.024312
149.318299 1.977277
149.559800 1.941512
149.800967 1.915330
150.042133 1.894890
150.283300 1.876450
150.524467 1.861879
150.765634 1.845566
151.007134 1.827416
151.248301 1.803881
151.489468 1.776738
151.730635 1.742249
151.971802 1.702288
152.212969 1.654991
152.454469 1.598402
152.695636 1.530850
152.936803 1.457852
153.177970 1.379417
153.419136 1.308604
153.660637 1.249043
153.901804 1.199043
154.142970 1.158506
154.384137 1.118109
154.625304 1.079715
154.866471 1.045185
155.107971 1.020014
155.349138 1.009965
155.590305 1.016808
155.831472 1.038681
156.072639 1.073729
156.313806 1.120095
156.555306 1.172108
156.796473 1.222497
157.037640 1.263711
157.278807 1.295746
157.519973 1.318596
157.761140 1.334123
158.002641 1.347834
158.243807 1.358041
158.484974 1.357191
158.726141 1.345287
158.967308 1.320464
159.208808 1.288235
159.449975 1.250645
159.691142 1.209472
159.932309 1.166584
160.173476 1.125707
160.414643 1.084978
160.656143 1.049897
160.897310 1.024359
161.138477 1.008275
161.379644 1.003503
161.620810 1.010042
161.861977 1.027895
162.103478 1.058842
162.344644 1.099335
162.585811 1.151158
162.826978 1.208729
163.068145 1.268324
163.309645 1.327996
163.550812 1.382318
163.791979 1.425601
164.033146 1.455972
164.274313 1.469690
164.515480 1.464887
164.756980 1.447079
164.998147 1.418304
165.239314 1.380348
165.480480 1.333219
165.721647 1.278787
165.962814 1.218924
166.204315 1.153552
166.445481 1.090294
166.686648 1.032790
166.927815 0.982895
167.168982 0.944328
167.410149 0.918941
167.651649 0.908511
167.892816 0.913196
168.133983 0.932916
168.375150 0.960232
168.616317 0.993284
168.857817 1.024547
169.098984 1.054181
169.340151 1.082105
169.581317 1.104592
169.822484 1.121641
170.063651 1.133251
170.305152 1.141204
170.546318 1.147523
170.787485 1.150264
171.028652 1.145701
171.269819 1.128245
171.510986 1.097900
171.752486 1.058320
171.993653 1.011528
172.234820 0.961175
172.475987 0.910986
172.717154 0.860962
172.958654 0.811025
173.199821 0.765048
173.440988 0.732248
173.682154 0.712617
173.923321 0.709869
174.164488 0.724004
174.405989 0.747513
174.647155 0.780551
174.888322 0.823048
175.129489 0.871288
175.370656 0.927138
175.611823 0.986881
175.853323 1.048585
176.094490 1.108674
176.335657 1.165209
176.576824 1.212595
176.817991 1.243367
177.059157 1.259382
177.300658 1.258699
177.541825 1.245193
177.782991 1.226249
178.024158 1.201871
178.265325 1.172060
178.506826 1.138611
178.747992 1.101669
178.989159 1.064889
179.230326 1.030135
179.471493 0.995543
179.712660 0.962974
179.954160 0.936080
180.195327 0.915000
180.436494 0.907105
180.677661 0.910531
180.918828 0.925281
181.159994 0.953218
181.401495 0.994279
181.642662 1.044887
181.883828 1.106844
182.124995 1.174570
182.366162 1.240613
182.607663 1.299310
182.848829 1.347060
183.089996 1.381920
183.331163 1.398285
183.572330 1.398016
183.813497 1.382979
184.054997 1.349381
184.296164 1.302959
184.537331 1.243658
184.778498 1.180807
185.019665 1.118136
185.260831 1.059371
185.502332 1.004442
185.743499 0.951615
185.984665 0.898963
186.225832 0.853927
186.466999 0.818362
186.708166 0.799701
186.949666 0.797876
187.190833 0.814874
187.432000 0.843196
187.673167 0.880985
187.914334 0.924525
188.155834 0.970036
188.397001 1.013919
188.638168 1.054248
188.879335 1.087297
189.120501 1.109334
189.361668 1.120356
189.603169 1.120300
189.844336 1.107426
190.085502 1.083539
190.326669 1.043054
190.567836 0.991569
190.809003 0.925370
191.050503 0.851855
191.291670 0.771153
191.532837 0.688790
191.774004 0.612199
192.015171 0.541373
192.256671 0.483674
192.497838 0.435495
192.739005 0.402337
192.980172 0.378626
193.221338 0.368068
193.462505 0.370662
193.704006 0.384495
193.945173 0.409685
194.186339 0.444322
194.427506 0.488412
194.668673 0.532676
194.909840 0.575256
195.151340 0.610521
195.392507 0.634864
195.633674 0.651939
195.874841 0.656170
196.116008 0.651274
196.357508 0.635336
196.598675 0.606613
196.839842 0.570628
197.081009 0.525529
197.322175 0.476891
197.563342 0.424718
197.804843 0.374525
198.046010 0.324565
198.287176 0.280346
198.528343 0.240010
198.769510 0.207263
199.010677 0.185809
199.252177 0.173736
199.493344 0.173003
199.734511 0.181703
199.975678 0.197983
200.216845 0.223699
200.458012 0.258856
200.699512 0.305263
200.940679 0.363031
201.181846 0.424694
201.423012 0.484687
201.664179 0.533721
201.905680 0.562450
202.146847 0.570966
202.388013 0.561072
202.629180 0.540200
202.870347 0.519498
203.111514 0.500820
203.353014 0.484118
203.594181 0.462063
203.835348 0.429040
204.076515 0.386910
204.317682 0.339390
204.558849 0.288339
204.800349 0.241130
205.041516 0.201562
205.282683 0.173289
205.523849 0.156308
205.765016 0.154321
206.006183 0.163622
206.247684 0.184165
206.488850 0.216047
206.730017 0.255519
206.971184 0.304441
207.212351 0.359108
207.453851 0.415771
207.695018 0.465237
207.936185 0.507455
208.177352 0.534992
208.418519 0.551556
208.659685 0.555287
208.901186 0.551713
209.142353 0.540920
209.383520 0.521011
209.624686 0.495701
209.865853 0.459422
210.107020 0.415895
210.348521 0.365082
210.589687 0.312637
210.830854 0.258521
211.072021 0.210149
211.313188 0.169373
211.554688 0.141705
211.795855 0.129074
212.037022 0.135143
212.278189 0.156208
212.519356 0.192272
